          Evm          Svm            E11          E22          E33          E23          E13          E12         SCAU11       SCAU22       SCAU33       SCAU23       SCAU13       SCAU12      TEMP
  0.00000E+00  0.12925E+02    0.00000E+00  0.00000E+00  0.00000E+00  0.00000E+00  0.00000E+00  0.00000E+00    0.00000E+00  0.00000E+00 -0.12914E+02  0.21285E+00  0.50194E-01  0.20445E+00
  0.13323E-02  0.12964E+02    0.61112E-03  0.72222E-03 -0.13333E-02  0.00000E+00  0.00000E+00  0.00000E+00    0.00000E+00  0.00000E+00 -0.12954E+02  0.21462E+00  0.51596E-01  0.20603E+00
  0.26645E-02  0.13006E+02    0.12214E-02  0.14453E-02 -0.26667E-02  0.00000E+00  0.00000E+00  0.00000E+00    0.00000E+00  0.00000E+00 -0.12996E+02  0.21473E+00  0.51551E-01  0.20643E+00
  0.39968E-02  0.13046E+02    0.18312E-02  0.21688E-02 -0.40000E-02  0.00000E+00  0.00000E+00  0.00000E+00    0.00000E+00  0.00000E+00 -0.13036E+02  0.21514E+00  0.51809E-01  0.20694E+00
  0.53290E-02  0.13086E+02    0.24406E-02  0.28927E-02 -0.53333E-02  0.00000E+00  0.00000E+00  0.00000E+00    0.00000E+00  0.00000E+00 -0.13076E+02  0.21558E+00  0.52086E-01  0.20743E+00
  0.66613E-02  0.13126E+02    0.30497E-02  0.36170E-02 -0.66667E-02  0.00000E+00  0.00000E+00  0.00000E+00    0.00000E+00  0.00000E+00 -0.13115E+02  0.21601E+00  0.52357E-01  0.20792E+00
  0.79935E-02  0.13166E+02    0.36585E-02  0.43415E-02 -0.80000E-02  0.00000E+00  0.00000E+00  0.00000E+00    0.00000E+00  0.00000E+00 -0.13155E+02  0.21644E+00  0.52621E-01  0.20841E+00
  0.93258E-02  0.13205E+02    0.42671E-02  0.50662E-02 -0.93333E-02  0.00000E+00  0.00000E+00  0.00000E+00    0.00000E+00  0.00000E+00 -0.13195E+02  0.21685E+00  0.52879E-01  0.20890E+00
  0.10658E-01  0.13245E+02    0.48755E-02  0.57912E-02 -0.10667E-01  0.00000E+00  0.00000E+00  0.00000E+00    0.00000E+00  0.00000E+00 -0.13234E+02  0.21725E+00  0.53132E-01  0.20938E+00
  0.11990E-01  0.13284E+02    0.54837E-02  0.65163E-02 -0.12000E-01  0.00000E+00  0.00000E+00  0.00000E+00    0.00000E+00  0.00000E+00 -0.13273E+02  0.21765E+00  0.53382E-01  0.20986E+00
  0.13323E-01  0.13323E+02    0.60916E-02  0.72417E-02 -0.13333E-01  0.00000E+00  0.00000E+00  0.00000E+00    0.00000E+00  0.00000E+00 -0.13312E+02  0.21803E+00  0.53628E-01  0.21034E+00
  0.14655E-01  0.13362E+02    0.66994E-02  0.79672E-02 -0.14667E-01  0.00000E+00  0.00000E+00  0.00000E+00    0.00000E+00  0.00000E+00 -0.13352E+02  0.21840E+00  0.53872E-01  0.21083E+00
  0.15987E-01  0.13401E+02    0.73071E-02  0.86929E-02 -0.16000E-01  0.00000E+00  0.00000E+00  0.00000E+00    0.00000E+00  0.00000E+00 -0.13390E+02  0.21875E+00  0.54113E-01  0.21130E+00
  0.17319E-01  0.13440E+02    0.79145E-02  0.94188E-02 -0.17333E-01  0.00000E+00  0.00000E+00  0.00000E+00    0.00000E+00  0.00000E+00 -0.13429E+02  0.21910E+00  0.54351E-01  0.21178E+00
  0.18652E-01  0.13479E+02    0.85218E-02  0.10145E-01 -0.18667E-01  0.00000E+00  0.00000E+00  0.00000E+00    0.00000E+00  0.00000E+00 -0.13468E+02  0.21944E+00  0.54587E-01  0.21226E+00
  0.19984E-01  0.13517E+02    0.91290E-02  0.10871E-01 -0.20000E-01  0.00000E+00  0.00000E+00  0.00000E+00    0.00000E+00  0.00000E+00 -0.13507E+02  0.21976E+00  0.54821E-01  0.21274E+00
  0.21316E-01  0.13556E+02    0.97359E-02  0.11597E-01 -0.21333E-01  0.00000E+00  0.00000E+00  0.00000E+00    0.00000E+00  0.00000E+00 -0.13545E+02  0.22008E+00  0.55053E-01  0.21322E+00
  0.22648E-01  0.13594E+02    0.10343E-01  0.12324E-01 -0.22667E-01  0.00000E+00  0.00000E+00  0.00000E+00    0.00000E+00  0.00000E+00 -0.13584E+02  0.22038E+00  0.55283E-01  0.21369E+00
  0.23981E-01  0.13633E+02    0.10949E-01  0.13051E-01 -0.24000E-01  0.00000E+00  0.00000E+00  0.00000E+00    0.00000E+00  0.00000E+00 -0.13622E+02  0.22067E+00  0.55511E-01  0.21417E+00
  0.25313E-01  0.13671E+02    0.11556E-01  0.13777E-01 -0.25333E-01  0.00000E+00  0.00000E+00  0.00000E+00    0.00000E+00  0.00000E+00 -0.13660E+02  0.22095E+00  0.55737E-01  0.21465E+00
  0.26645E-01  0.13709E+02    0.12162E-01  0.14504E-01 -0.26667E-01  0.00000E+00  0.00000E+00  0.00000E+00    0.00000E+00  0.00000E+00 -0.13698E+02  0.22122E+00  0.55961E-01  0.21512E+00
  0.27978E-01  0.13747E+02    0.12768E-01  0.15232E-01 -0.28000E-01  0.00000E+00  0.00000E+00  0.00000E+00    0.00000E+00  0.00000E+00 -0.13736E+02  0.22148E+00  0.56183E-01  0.21560E+00
  0.29310E-01  0.13785E+02    0.13374E-01  0.15959E-01 -0.29333E-01  0.00000E+00  0.00000E+00  0.00000E+00    0.00000E+00  0.00000E+00 -0.13774E+02  0.22173E+00  0.56403E-01  0.21608E+00
  0.30642E-01  0.13823E+02    0.13980E-01  0.16686E-01 -0.30667E-01  0.00000E+00  0.00000E+00  0.00000E+00    0.00000E+00  0.00000E+00 -0.13812E+02  0.22196E+00  0.56622E-01  0.21655E+00
  0.31974E-01  0.13861E+02    0.14586E-01  0.17414E-01 -0.32000E-01  0.00000E+00  0.00000E+00  0.00000E+00    0.00000E+00  0.00000E+00 -0.13850E+02  0.22219E+00  0.56838E-01  0.21703E+00
  0.33307E-01  0.13903E+02    0.15191E-01  0.18142E-01 -0.33333E-01  0.00000E+00  0.00000E+00  0.00000E+00    0.00000E+00  0.00000E+00 -0.13893E+02  0.22245E+00  0.57138E-01  0.21789E+00
  0.34639E-01  0.13941E+02    0.15797E-01  0.18870E-01 -0.34667E-01  0.00000E+00  0.00000E+00  0.00000E+00    0.00000E+00  0.00000E+00 -0.13930E+02  0.22266E+00  0.57348E-01  0.21832E+00
  0.35971E-01  0.13978E+02    0.16402E-01  0.19598E-01 -0.36000E-01  0.00000E+00  0.00000E+00  0.00000E+00    0.00000E+00  0.00000E+00 -0.13968E+02  0.22285E+00  0.57560E-01  0.21880E+00
  0.37304E-01  0.14016E+02    0.17007E-01  0.20326E-01 -0.37333E-01  0.00000E+00  0.00000E+00  0.00000E+00    0.00000E+00  0.00000E+00 -0.14005E+02  0.22302E+00  0.57769E-01  0.21927E+00
  0.38636E-01  0.14053E+02    0.17612E-01  0.21055E-01 -0.38667E-01  0.00000E+00  0.00000E+00  0.00000E+00    0.00000E+00  0.00000E+00 -0.14042E+02  0.22319E+00  0.57975E-01  0.21975E+00
  0.39968E-01  0.14090E+02    0.18216E-01  0.21784E-01 -0.40000E-01  0.00000E+00  0.00000E+00  0.00000E+00    0.00000E+00  0.00000E+00 -0.14079E+02  0.22335E+00  0.58179E-01  0.22023E+00
  0.41301E-01  0.14127E+02    0.18821E-01  0.22512E-01 -0.41333E-01  0.00000E+00  0.00000E+00  0.00000E+00    0.00000E+00  0.00000E+00 -0.14116E+02  0.22349E+00  0.58380E-01  0.22070E+00
  0.42633E-01  0.14164E+02    0.19425E-01  0.23241E-01 -0.42667E-01  0.00000E+00  0.00000E+00  0.00000E+00    0.00000E+00  0.00000E+00 -0.14153E+02  0.22362E+00  0.58580E-01  0.22118E+00
  0.43965E-01  0.14201E+02    0.20030E-01  0.23970E-01 -0.44000E-01  0.00000E+00  0.00000E+00  0.00000E+00    0.00000E+00  0.00000E+00 -0.14190E+02  0.22375E+00  0.58778E-01  0.22166E+00
  0.45298E-01  0.14237E+02    0.20634E-01  0.24700E-01 -0.45333E-01  0.00000E+00  0.00000E+00  0.00000E+00    0.00000E+00  0.00000E+00 -0.14227E+02  0.22386E+00  0.58973E-01  0.22213E+00
  0.46630E-01  0.14274E+02    0.21238E-01  0.25429E-01 -0.46667E-01  0.00000E+00  0.00000E+00  0.00000E+00    0.00000E+00  0.00000E+00 -0.14263E+02  0.22396E+00  0.59166E-01  0.22261E+00
  0.47962E-01  0.14311E+02    0.21841E-01  0.26159E-01 -0.48000E-01  0.00000E+00  0.00000E+00  0.00000E+00    0.00000E+00  0.00000E+00 -0.14300E+02  0.22405E+00  0.59358E-01  0.22309E+00
  0.49294E-01  0.14347E+02    0.22445E-01  0.26888E-01 -0.49333E-01  0.00000E+00  0.00000E+00  0.00000E+00    0.00000E+00  0.00000E+00 -0.14336E+02  0.22412E+00  0.59547E-01  0.22357E+00
  0.50627E-01  0.14383E+02    0.23048E-01  0.27618E-01 -0.50667E-01  0.00000E+00  0.00000E+00  0.00000E+00    0.00000E+00  0.00000E+00 -0.14373E+02  0.22419E+00  0.59734E-01  0.22405E+00
  0.51959E-01  0.14420E+02    0.23652E-01  0.28348E-01 -0.52000E-01  0.00000E+00  0.00000E+00  0.00000E+00    0.00000E+00  0.00000E+00 -0.14409E+02  0.22424E+00  0.59919E-01  0.22453E+00
  0.53291E-01  0.14456E+02    0.24255E-01  0.29079E-01 -0.53333E-01  0.00000E+00  0.00000E+00  0.00000E+00    0.00000E+00  0.00000E+00 -0.14445E+02  0.22428E+00  0.60102E-01  0.22502E+00
  0.54624E-01  0.14492E+02    0.24858E-01  0.29809E-01 -0.54667E-01  0.00000E+00  0.00000E+00  0.00000E+00    0.00000E+00  0.00000E+00 -0.14481E+02  0.22431E+00  0.60282E-01  0.22550E+00
  0.55956E-01  0.14528E+02    0.25460E-01  0.30540E-01 -0.56000E-01  0.00000E+00  0.00000E+00  0.00000E+00    0.00000E+00  0.00000E+00 -0.14517E+02  0.22433E+00  0.60460E-01  0.22598E+00
  0.57288E-01  0.14564E+02    0.26063E-01  0.31270E-01 -0.57333E-01  0.00000E+00  0.00000E+00  0.00000E+00    0.00000E+00  0.00000E+00 -0.14553E+02  0.22434E+00  0.60637E-01  0.22647E+00
  0.58621E-01  0.14598E+02    0.26665E-01  0.32001E-01 -0.58667E-01  0.00000E+00  0.00000E+00  0.00000E+00    0.00000E+00  0.00000E+00 -0.14587E+02  0.22410E+00  0.60894E-01  0.22801E+00
  0.59953E-01  0.14636E+02    0.27268E-01  0.32732E-01 -0.60000E-01  0.00000E+00  0.00000E+00  0.00000E+00    0.00000E+00  0.00000E+00 -0.14625E+02  0.22411E+00  0.61066E-01  0.22844E+00
  0.61285E-01  0.14671E+02    0.27870E-01  0.33464E-01 -0.61333E-01  0.00000E+00  0.00000E+00  0.00000E+00    0.00000E+00  0.00000E+00 -0.14660E+02  0.22409E+00  0.61233E-01  0.22889E+00
  0.62618E-01  0.14706E+02    0.28472E-01  0.34195E-01 -0.62667E-01  0.00000E+00  0.00000E+00  0.00000E+00    0.00000E+00  0.00000E+00 -0.14695E+02  0.22405E+00  0.61403E-01  0.22938E+00
  0.63950E-01  0.14742E+02    0.29074E-01  0.34926E-01 -0.64000E-01  0.00000E+00  0.00000E+00  0.00000E+00    0.00000E+00  0.00000E+00 -0.14731E+02  0.22401E+00  0.61568E-01  0.22986E+00
  0.65283E-01  0.14777E+02    0.29675E-01  0.35658E-01 -0.65333E-01  0.00000E+00  0.00000E+00  0.00000E+00    0.00000E+00  0.00000E+00 -0.14766E+02  0.22395E+00  0.61731E-01  0.23034E+00
  0.66615E-01  0.14813E+02    0.30277E-01  0.36390E-01 -0.66667E-01  0.00000E+00  0.00000E+00  0.00000E+00    0.00000E+00  0.00000E+00 -0.14802E+02  0.22389E+00  0.61891E-01  0.23082E+00
  0.67947E-01  0.14848E+02    0.30878E-01  0.37122E-01 -0.68000E-01  0.00000E+00  0.00000E+00  0.00000E+00    0.00000E+00  0.00000E+00 -0.14837E+02  0.22381E+00  0.62049E-01  0.23130E+00
  0.69280E-01  0.14883E+02    0.31479E-01  0.37854E-01 -0.69333E-01  0.00000E+00  0.00000E+00  0.00000E+00    0.00000E+00  0.00000E+00 -0.14872E+02  0.22372E+00  0.62205E-01  0.23179E+00
  0.70612E-01  0.14918E+02    0.32080E-01  0.38587E-01 -0.70667E-01  0.00000E+00  0.00000E+00  0.00000E+00    0.00000E+00  0.00000E+00 -0.14907E+02  0.22361E+00  0.62357E-01  0.23227E+00
  0.71944E-01  0.14953E+02    0.32681E-01  0.39319E-01 -0.72000E-01  0.00000E+00  0.00000E+00  0.00000E+00    0.00000E+00  0.00000E+00 -0.14942E+02  0.22350E+00  0.62508E-01  0.23276E+00
  0.73277E-01  0.14988E+02    0.33281E-01  0.40052E-01 -0.73333E-01  0.00000E+00  0.00000E+00  0.00000E+00    0.00000E+00  0.00000E+00 -0.14977E+02  0.22337E+00  0.62656E-01  0.23325E+00
  0.74609E-01  0.15023E+02    0.33882E-01  0.40785E-01 -0.74667E-01  0.00000E+00  0.00000E+00  0.00000E+00    0.00000E+00  0.00000E+00 -0.15012E+02  0.22324E+00  0.62801E-01  0.23373E+00
  0.75941E-01  0.15057E+02    0.34482E-01  0.41518E-01 -0.76000E-01  0.00000E+00  0.00000E+00  0.00000E+00    0.00000E+00  0.00000E+00 -0.15047E+02  0.22309E+00  0.62945E-01  0.23422E+00
  0.77274E-01  0.15092E+02    0.35083E-01  0.42251E-01 -0.77333E-01  0.00000E+00  0.00000E+00  0.00000E+00    0.00000E+00  0.00000E+00 -0.15081E+02  0.22293E+00  0.63085E-01  0.23472E+00
  0.78606E-01  0.15127E+02    0.35683E-01  0.42984E-01 -0.78667E-01  0.00000E+00  0.00000E+00  0.00000E+00    0.00000E+00  0.00000E+00 -0.15116E+02  0.22276E+00  0.63224E-01  0.23521E+00
  0.79939E-01  0.15161E+02    0.36282E-01  0.43718E-01 -0.80000E-01  0.00000E+00  0.00000E+00  0.00000E+00    0.00000E+00  0.00000E+00 -0.15150E+02  0.22257E+00  0.63359E-01  0.23570E+00
  0.81271E-01  0.15195E+02    0.36882E-01  0.44451E-01 -0.81333E-01  0.00000E+00  0.00000E+00  0.00000E+00    0.00000E+00  0.00000E+00 -0.15185E+02  0.22238E+00  0.63493E-01  0.23620E+00
  0.82603E-01  0.15230E+02    0.37482E-01  0.45185E-01 -0.82667E-01  0.00000E+00  0.00000E+00  0.00000E+00    0.00000E+00  0.00000E+00 -0.15219E+02  0.22217E+00  0.63624E-01  0.23669E+00
  0.83936E-01  0.15264E+02    0.38081E-01  0.45919E-01 -0.84000E-01  0.00000E+00  0.00000E+00  0.00000E+00    0.00000E+00  0.00000E+00 -0.15253E+02  0.22195E+00  0.63752E-01  0.23719E+00
  0.85268E-01  0.15298E+02    0.38680E-01  0.46653E-01 -0.85333E-01  0.00000E+00  0.00000E+00  0.00000E+00    0.00000E+00  0.00000E+00 -0.15287E+02  0.22172E+00  0.63878E-01  0.23769E+00
  0.86601E-01  0.15332E+02    0.39280E-01  0.47387E-01 -0.86667E-01  0.00000E+00  0.00000E+00  0.00000E+00    0.00000E+00  0.00000E+00 -0.15321E+02  0.22147E+00  0.64001E-01  0.23819E+00
  0.87933E-01  0.15366E+02    0.39878E-01  0.48122E-01 -0.88000E-01  0.00000E+00  0.00000E+00  0.00000E+00    0.00000E+00  0.00000E+00 -0.15355E+02  0.22122E+00  0.64122E-01  0.23869E+00
  0.89265E-01  0.15400E+02    0.40477E-01  0.48856E-01 -0.89333E-01  0.00000E+00  0.00000E+00  0.00000E+00    0.00000E+00  0.00000E+00 -0.15389E+02  0.22095E+00  0.64241E-01  0.23920E+00
  0.90598E-01  0.15434E+02    0.41076E-01  0.49591E-01 -0.90667E-01  0.00000E+00  0.00000E+00  0.00000E+00    0.00000E+00  0.00000E+00 -0.15423E+02  0.22067E+00  0.64357E-01  0.23970E+00
  0.91930E-01  0.15468E+02    0.41674E-01  0.50326E-01 -0.92000E-01  0.00000E+00  0.00000E+00  0.00000E+00    0.00000E+00  0.00000E+00 -0.15457E+02  0.22038E+00  0.64470E-01  0.24020E+00
  0.93263E-01  0.15501E+02    0.42273E-01  0.51061E-01 -0.93333E-01  0.00000E+00  0.00000E+00  0.00000E+00    0.00000E+00  0.00000E+00 -0.15491E+02  0.22008E+00  0.64581E-01  0.24071E+00
  0.94595E-01  0.15535E+02    0.42871E-01  0.51796E-01 -0.94667E-01  0.00000E+00  0.00000E+00  0.00000E+00    0.00000E+00  0.00000E+00 -0.15524E+02  0.21977E+00  0.64690E-01  0.24122E+00
  0.95927E-01  0.15569E+02    0.43469E-01  0.52531E-01 -0.96000E-01  0.00000E+00  0.00000E+00  0.00000E+00    0.00000E+00  0.00000E+00 -0.15558E+02  0.21944E+00  0.64796E-01  0.24173E+00
  0.97260E-01  0.15602E+02    0.44067E-01  0.53266E-01 -0.97333E-01  0.00000E+00  0.00000E+00  0.00000E+00    0.00000E+00  0.00000E+00 -0.15591E+02  0.21910E+00  0.64900E-01  0.24224E+00
  0.98592E-01  0.15635E+02    0.44665E-01  0.54002E-01 -0.98667E-01  0.00000E+00  0.00000E+00  0.00000E+00    0.00000E+00  0.00000E+00 -0.15625E+02  0.21875E+00  0.65001E-01  0.24275E+00
  0.99925E-01  0.15669E+02    0.45262E-01  0.54738E-01 -0.10000E+00  0.00000E+00  0.00000E+00  0.00000E+00    0.00000E+00  0.00000E+00 -0.15658E+02  0.21839E+00  0.65100E-01  0.24326E+00
  0.10126E+00  0.15702E+02    0.45860E-01  0.55474E-01 -0.10133E+00  0.00000E+00  0.00000E+00  0.00000E+00    0.00000E+00  0.00000E+00 -0.15691E+02  0.21802E+00  0.65196E-01  0.24378E+00
  0.10259E+00  0.15735E+02    0.46457E-01  0.56210E-01 -0.10267E+00  0.00000E+00  0.00000E+00  0.00000E+00    0.00000E+00  0.00000E+00 -0.15725E+02  0.21763E+00  0.65290E-01  0.24429E+00
  0.10392E+00  0.15768E+02    0.47054E-01  0.56946E-01 -0.10400E+00  0.00000E+00  0.00000E+00  0.00000E+00    0.00000E+00  0.00000E+00 -0.15758E+02  0.21724E+00  0.65382E-01  0.24481E+00
  0.10525E+00  0.15801E+02    0.47651E-01  0.57682E-01 -0.10533E+00  0.00000E+00  0.00000E+00  0.00000E+00    0.00000E+00  0.00000E+00 -0.15791E+02  0.21683E+00  0.65471E-01  0.24533E+00
  0.10659E+00  0.15834E+02    0.48248E-01  0.58419E-01 -0.10667E+00  0.00000E+00  0.00000E+00  0.00000E+00    0.00000E+00  0.00000E+00 -0.15824E+02  0.21641E+00  0.65559E-01  0.24585E+00
  0.10792E+00  0.15867E+02    0.48845E-01  0.59155E-01 -0.10800E+00  0.00000E+00  0.00000E+00  0.00000E+00    0.00000E+00  0.00000E+00 -0.15857E+02  0.21597E+00  0.65644E-01  0.24637E+00
  0.10925E+00  0.15900E+02    0.49441E-01  0.59892E-01 -0.10933E+00  0.00000E+00  0.00000E+00  0.00000E+00    0.00000E+00  0.00000E+00 -0.15889E+02  0.21553E+00  0.65726E-01  0.24689E+00
  0.11058E+00  0.15933E+02    0.50038E-01  0.60629E-01 -0.11067E+00  0.00000E+00  0.00000E+00  0.00000E+00    0.00000E+00  0.00000E+00 -0.15922E+02  0.21507E+00  0.65807E-01  0.24741E+00
  0.11192E+00  0.15965E+02    0.50634E-01  0.61366E-01 -0.11200E+00  0.00000E+00  0.00000E+00  0.00000E+00    0.00000E+00  0.00000E+00 -0.15955E+02  0.21460E+00  0.65885E-01  0.24793E+00
  0.11325E+00  0.15998E+02    0.51230E-01  0.62103E-01 -0.11333E+00  0.00000E+00  0.00000E+00  0.00000E+00    0.00000E+00  0.00000E+00 -0.15988E+02  0.21412E+00  0.65961E-01  0.24846E+00
  0.11458E+00  0.16031E+02    0.51826E-01  0.62841E-01 -0.11467E+00  0.00000E+00  0.00000E+00  0.00000E+00    0.00000E+00  0.00000E+00 -0.16020E+02  0.21363E+00  0.66034E-01  0.24898E+00
  0.11591E+00  0.16063E+02    0.52422E-01  0.63578E-01 -0.11600E+00  0.00000E+00  0.00000E+00  0.00000E+00    0.00000E+00  0.00000E+00 -0.16053E+02  0.21312E+00  0.66106E-01  0.24951E+00
  0.11725E+00  0.16095E+02    0.53018E-01  0.64316E-01 -0.11733E+00  0.00000E+00  0.00000E+00  0.00000E+00    0.00000E+00  0.00000E+00 -0.16085E+02  0.21261E+00  0.66176E-01  0.25003E+00
  0.11858E+00  0.16128E+02    0.53613E-01  0.65054E-01 -0.11867E+00  0.00000E+00  0.00000E+00  0.00000E+00    0.00000E+00  0.00000E+00 -0.16117E+02  0.21208E+00  0.66244E-01  0.25056E+00
  0.11991E+00  0.16160E+02    0.54209E-01  0.65791E-01 -0.12000E+00  0.00000E+00  0.00000E+00  0.00000E+00    0.00000E+00  0.00000E+00 -0.16150E+02  0.21154E+00  0.66309E-01  0.25109E+00
